"Time (s)","Linear Acceleration x (m/s^2)","Linear Acceleration y (m/s^2)","Linear Acceleration z (m/s^2)","Absolute acceleration (m/s^2)"
5.155172200E-2,0.000000000E0,0.000000000E0,0.000000000E0,0.000000000E0
5.629302400E-2,3.945446014E-2,-3.330993652E-2,-4.021739960E-2,6.544956476E-2
6.103437800E-2,7.196831703E-2,-6.621551514E-2,-6.543493271E-2,1.176675976E-1
6.577568000E-2,7.956385612E-2,-8.781719208E-2,-8.837461472E-2,1.478253664E-1
7.051703400E-2,8.655953407E-2,-9.108734131E-2,-9.096145630E-2,1.551239608E-1
7.525833600E-2,1.075322628E-1,-9.075546265E-2,-8.235073090E-2,1.630379846E-1
7.999969000E-2,1.321144104E-1,-8.803796768E-2,-8.088827133E-2,1.781791616E-1
8.474104500E-2,1.493797302E-1,-8.657169342E-2,-7.655334473E-2,1.888633805E-1
8.948234700E-2,1.663086414E-1,-8.366823196E-2,-6.043148041E-2,1.957317069E-1
9.422370100E-2,1.740627289E-1,-8.789253235E-2,-2.416229248E-2,1.964859975E-1
9.896500300E-2,1.840734482E-1,-9.648656845E-2,3.601360321E-2,2.109257496E-1
1.037063570E-1,2.113857269E-1,-1.093010902E-1,1.152119637E-1,2.643944978E-1
1.084476590E-1,2.506601810E-1,-1.218023300E-1,2.002882957E-1,3.431934373E-1
1.131890130E-1,3.193786144E-1,-1.497249603E-1,2.877078056E-1,4.551879222E-1
1.179303680E-1,3.939874172E-1,-1.923828125E-1,3.717703819E-1,5.748481959E-1
1.226716700E-1,4.612727165E-1,-2.584371567E-1,4.672622681E-1,7.056176799E-1
1.274130240E-1,5.243802071E-1,-3.404660225E-1,5.700173378E-1,8.460564280E-1
1.321543260E-1,5.976302624E-1,-4.337944984E-1,6.783547401E-1,1.002748598E0
1.368956800E-1,6.720576286E-1,-5.521583557E-1,7.974462509E-1,1.180025775E0
1.416370340E-1,7.615535259E-1,-6.906442642E-1,9.275741577E-1,1.384683029E0
1.463783360E-1,8.724094629E-1,-8.264260292E-1,1.064361095E0,1.605285892E0
1.511196900E-1,9.926402569E-1,-9.674444199E-1,1.224378109E0,1.849428328E0
1.558609930E-1,1.112951636E0,-1.125852108E0,1.393690586E0,2.109165182E0
1.606023470E-1,1.256690383E0,-1.292637825E0,1.558927536E0,2.383367015E0
1.653437010E-1,1.442067623E0,-1.459094524E0,1.691135883E0,2.658656886E0
1.700850030E-1,1.654822588E0,-1.621237993E0,1.778295040E0,2.920476618E0
1.748263570E-1,1.886077881E0,-1.777240753E0,1.794558525E0,3.152192057E0
1.795676590E-1,2.131974697E0,-1.913363457E0,1.716639519E0,3.339629779E0
1.843090130E-1,2.384240866E0,-2.032091141E0,1.523731709E0,3.483641375E0
1.890503150E-1,2.625913382E0,-2.104943275E0,1.197107792E0,3.572012646E0
1.937916700E-1,2.814652443E0,-2.136091232E0,7.176656723E-1,3.605578753E0
1.985330240E-1,2.898464680E0,-2.129373074E0,8.457851410E-2,3.597565943E0
2.032743260E-1,2.850656509E0,-2.086607456E0,-6.567287445E-1,3.593252824E0
2.080156800E-1,2.646827459E0,-2.000923395E0,-1.405920029E0,3.603609463E0
2.127570340E-1,2.346971750E0,-1.900830269E0,-2.085832834E0,3.670440126E0
2.174983360E-1,1.746857166E0,-1.584400415E0,-2.655829668E0,3.551797554E0
2.222396900E-1,1.220132470E0,-1.509176970E0,-2.986901760E0,3.562010738E0
2.269810450E-1,8.110086322E-1,-1.479794979E0,-3.193568468E0,3.611981138E0
2.317223470E-1,5.261455178E-1,-1.387872934E0,-3.378160000E0,3.689848963E0
2.364637010E-1,3.708984852E-1,-1.443121195E0,-3.242489338E0,3.568459272E0
2.412050030E-1,2.331295013E-1,-1.616727829E0,-3.075990438E0,3.482797068E0
2.459463570E-1,7.664990425E-2,-1.733215570E0,-2.970992088E0,3.440451338E0
2.506877110E-1,-5.475056171E-2,-1.588501930E0,-2.790189266E0,3.211151218E0
2.554290130E-1,5.981373787E-2,-1.427395344E0,-2.435780048E0,2.823837742E0
2.601703680E-1,3.645325899E-1,-1.360153913E0,-2.016021729E0,2.459114940E0
2.649117220E-1,6.033965945E-1,-1.192231417E0,-1.712820053E0,2.172384804E0
2.696530240E-1,8.696367741E-1,-1.021033049E0,-1.380040407E0,1.924392925E0
2.743943780E-1,1.042694926E0,-9.402115345E-1,-1.005536079E0,1.726937534E0
2.791357320E-1,1.123696089E0,-8.543231487E-1,-6.364498138E-1,1.548428012E0
2.838770340E-1,1.189531088E0,-6.605064869E-1,-1.943788528E-1,1.374422121E0
2.886183880E-1,2.110813141E0,3.660240173E-1,3.301934242E0,3.936022794E0
2.933597430E-1,2.288237572E0,7.483983040E-1,5.252521038E0,5.777984810E0
2.981010450E-1,2.437554598E0,1.347626686E0,7.298822880E0,7.812207469E0
3.028423990E-1,2.801342010E0,1.972721577E0,9.404484749E0,1.000916984E1
3.075837530E-1,3.223506451E0,2.574811459E0,1.141131878E1,1.213420142E1
3.123250550E-1,3.717221737E0,3.141260147E0,1.309509087E1,1.397020607E1
3.170664090E-1,4.304430485E0,3.753884792E0,1.438524628E1,1.547756710E1
3.218077630E-1,4.886602402E0,4.404339790E0,1.523267651E1,1.659251414E1
3.265490650E-1,5.316912651E0,5.038080692E0,1.583767700E1,1.744946504E1
3.312904200E-1,5.526957989E0,5.540383816E0,1.650053024E1,1.826227302E1
3.360317740E-1,5.237293720E0,5.878021240E0,1.730262375E1,1.900950204E1
3.407730760E-1,4.573343754E0,6.093607426E0,1.797796059E1,1.952574176E1
3.455144300E-1,3.631363869E0,6.197037697E0,1.816749001E1,1.953580745E1
3.502557840E-1,2.353324175E0,6.246089458E0,1.795521545E1,1.915571795E1
3.549971380E-1,8.696150780E-1,6.364216805E0,1.765192795E1,1.878430319E1
3.597384400E-1,-3.048616946E-1,6.719488621E0,1.765614319E1,1.889401652E1
3.644797950E-1,-9.135656357E-1,7.339862347E0,1.789434624E1,1.936274280E1
3.692211490E-1,-1.098926902E0,7.931581974E0,1.814372253E1,1.983210277E1
3.739624510E-1,-1.139561176E0,8.389284134E0,1.807612801E1,1.996058846E1
3.787038050E-1,-1.155841351E0,8.675809860E0,1.759640312E1,1.965296539E1
3.834451590E-1,-1.206699133E0,8.764297485E0,1.690290833E1,1.907819025E1
3.881865130E-1,-1.300827742E0,8.852109909E0,1.628809738E1,1.858370574E1
3.929278150E-1,-1.431418896E0,8.880557060E0,1.577402687E1,1.815855659E1
3.976691700E-1,-1.555995703E0,8.836194992E0,1.517954826E1,1.763287129E1
4.024105240E-1,-1.676542044E0,8.618344307E0,1.445572376E1,1.691314877E1
4.071518260E-1,-1.665474653E0,8.328544617E0,1.353041840E1,1.597531481E1
4.118931800E-1,-1.444110632E0,8.053310394E0,1.233670902E1,1.480323118E1
4.166345340E-1,-9.906299710E-1,7.913954258E0,1.094758892E1,1.354480428E1
4.213758880E-1,-4.880604148E-1,7.910246849E0,9.404043198E0,1.229822087E1
4.261171900E-1,-1.419913769E-2,7.990333557E0,7.866881371E0,1.121309299E1
4.308585450E-1,3.096675277E-1,8.140872002E0,6.369616508E0,1.034126227E1
4.355998990E-1,4.037629068E-1,8.305945396E0,5.094455719E0,9.752191163E0
4.403412530E-1,3.383555114E-1,8.460653305E0,4.008914948E0,9.368486423E0
4.450825550E-1,1.775331795E-2,8.570831299E0,3.066823006E0,9.103014209E0
4.498239090E-1,-5.250738859E-1,8.505199432E0,2.272651672E0,8.819244049E0
4.545652630E-1,-1.172445178E0,8.270639420E0,1.723586082E0,8.529293821E0
4.593066180E-1,-1.890103102E0,7.840185165E0,1.405064583E0,8.186281185E0
4.640479200E-1,-2.836164951E0,7.210838318E0,1.314620018E0,7.859277745E0
4.687892740E-1,-3.960528612E0,6.326795578E0,1.377141953E0,7.590167925E0
4.735306280E-1,-5.063093185E0,5.229039192E0,1.779585838E0,7.492975993E0
4.782719820E-1,-5.894649982E0,3.907590866E0,2.331139565E0,7.446500954E0
4.830132840E-1,-6.429878235E0,2.475566864E0,2.739005089E0,7.414439580E0
4.877546380E-1,-6.667810917E0,1.047275543E0,2.947813034E0,7.365194510E0
4.924959930E-1,-6.737947941E0,-4.320068359E-1,2.916539192E0,7.354778937E0
4.972373470E-1,-6.706987381E0,-1.937891006E0,2.589893341E0,7.446250654E0
5.019786490E-1,-6.643160820E0,-3.474372387E0,1.967245102E0,7.750671097E0
5.067200030E-1,-6.500569820E0,-4.962403297E0,1.142544746E0,8.257618481E0
5.114613570E-1,-6.282755852E0,-6.309990883E0,2.540893555E-1,8.908061935E0
5.162027110E-1,-5.910555840E0,-7.411834717E0,-6.109514236E-1,9.499643459E0
5.209440130E-1,-5.418035984E0,-8.301394463E0,-1.477423668E0,1.002252686E1
5.256853680E-1,-4.638196468E0,-8.789405823E0,-2.279520035E0,1.019621169E1
5.304267220E-1,-3.790083408E0,-8.998470306E0,-3.101718903E0,1.024489435E1
5.351680760E-1,-3.172071695E0,-9.034788132E0,-4.158761978E0,1.043957550E1
5.399094300E-1,-2.678080559E0,-8.947564125E0,-5.429719925E0,1.080337344E1
5.446507320E-1,-2.287834167E0,-8.817684174E0,-6.792791843E0,1.136343964E1
5.493920860E-1,-1.998537540E0,-8.689454079E0,-8.156105042E0,1.208398998E1
5.541334400E-1,-1.770073771E0,-8.647010803E0,-9.388484955E0,1.288594609E1
5.588747950E-1,-1.694595695E0,-8.628928185E0,-1.046908379E1,1.367229942E1
5.636161490E-1,-1.601417780E0,-8.547886848E0,-1.157421684E1,1.447734105E1
5.683574510E-1,-1.446373820E0,-8.466751099E0,-1.261265469E1,1.525965038E1
5.730988050E-1,-1.270599365E0,-8.424058914E0,-1.349126625E1,1.595598497E1
5.778401590E-1,-1.039348364E0,-8.554878235E0,-1.450692558E1,1.687356146E1
5.825815130E-1,-7.384848595E-1,-8.641247749E0,-1.559584045E1,1.784507669E1
5.873228680E-1,-4.142308235E-1,-8.681744576E0,-1.704688644E1,1.913480111E1
5.920641700E-1,-7.677191496E-2,-8.707530975E0,-1.872212982E1,2.064812666E1
5.968055240E-1,9.870809317E-2,-8.882488251E0,-2.053495979E1,2.237393382E1
6.015468780E-1,2.585369349E-2,-9.180146217E0,-2.206698799E1,2.390037054E1
6.062882320E-1,-4.094082117E-1,-9.561704636E0,-2.288586617E1,2.480638387E1
6.110295860E-1,-1.016623259E0,-9.892653465E0,-2.321725082E1,2.525745140E1
6.157708880E-1,-1.691119432E0,-1.011634922E1,-2.325121689E1,2.541297884E1
6.205122430E-1,-2.317902088E0,-1.025773430E1,-2.305489731E1,2.534012772E1
6.252535970E-1,-2.804232836E0,-1.032054901E1,-2.271822739E1,2.510966565E1
6.299949510E-1,-3.126953363E0,-1.043957520E1,-2.212556839E1,2.466380636E1
6.347363050E-1,-3.294920444E0,-1.049921799E1,-2.143495560E1,2.409455126E1
6.394776070E-1,-3.187908411E0,-1.047027779E1,-2.068411255E1,2.340132451E1
6.442189610E-1,-2.897546768E0,-1.038327789E1,-1.989348793E1,2.262651319E1
6.489603150E-1,-2.576254368E0,-1.027305412E1,-1.909999657E1,2.183993124E1
6.537016700E-1,-2.241950035E0,-1.020279026E1,-1.819994545E1,2.098478695E1
6.584430240E-1,-1.893795252E0,-1.019750404E1,-1.712576485E1,2.002167253E1
6.631843780E-1,-1.484315515E0,-1.027039814E1,-1.592898464E1,1.901096584E1
6.679256800E-1,-1.156434655E0,-1.034938622E1,-1.446098518E1,1.782041606E1
6.726670340E-1,-6.431376934E-1,-1.039154053E1,-1.277153587E1,1.647755653E1
6.774083880E-1,6.739616394E-3,-1.031600666E1,-1.109808350E1,1.515214493E1
6.821497430E-1,8.079604506E-1,-1.012294579E1,-9.626843452E0,1.399296060E1
6.868910970E-1,1.646608949E0,-9.990150452E0,-8.410216331E0,1.316230093E1
6.916324510E-1,2.399388313E0,-9.972809792E0,-7.341161251E0,1.261374837E1
6.963737530E-1,2.890991449E0,-9.992641449E0,-6.111453533E0,1.206484890E1
7.011151070E-1,3.132184029E0,-9.853410721E0,-4.792755127E0,1.139608623E1
7.058564610E-1,3.350117922E0,-9.557300568E0,-3.610935450E0,1.075193653E1
7.105978150E-1,3.496860504E0,-9.134492874E0,-2.792997837E0,1.017191380E1
7.153391700E-1,3.491142273E0,-8.790002823E0,-2.436535358E0,9.766725580E0
7.200805240E-1,3.351342678E0,-8.458118439E0,-2.586531639E0,9.458404262E0
7.248218780E-1,3.176876068E0,-8.134967804E0,-3.119159222E0,9.273585982E0
7.295631800E-1,2.831681013E0,-7.837944984E0,-3.707100391E0,9.121096001E0
7.343045340E-1,2.397057533E0,-7.529782295E0,-4.300942421E0,8.996755634E0
7.390458880E-1,1.641575098E0,-7.197883606E0,-4.544419289E0,8.669258554E0
7.437872430E-1,9.179173708E-1,-6.822617531E0,-4.958643913E0,8.484033930E0
7.485285970E-1,1.773604453E-1,-6.501090050E0,-5.255094528E0,8.361318500E0
7.532699510E-1,-8.351624608E-1,-6.237431526E0,-5.356214046E0,8.263902062E0
7.580112530E-1,-1.819278002E0,-5.890843391E0,-5.386979103E0,8.187267686E0
7.627526070E-1,-2.428640366E0,-5.452112198E0,-5.507325172E0,8.121234635E0
7.674939610E-1,-2.696835756E0,-5.021294117E0,-5.778778553E0,8.116686471E0
7.722353150E-1,-2.737864256E0,-4.668980598E0,-6.236488819E0,8.257667546E0
7.769766700E-1,-2.614937305E0,-4.427091122E0,-6.796564102E0,8.522342196E0
7.817180240E-1,-2.274362087E0,-4.258393288E0,-7.437492847E0,8.866957548E0
7.864593780E-1,-1.881811619E0,-4.151990891E0,-8.066592216E0,9.265535781E0
7.912006800E-1,-1.337822914E0,-4.032746315E0,-8.665546417E0,9.651140228E0
7.959420340E-1,-9.367040396E-1,-3.914227486E0,-9.118516922E0,9.967243457E0
8.006833880E-1,-7.669826746E-1,-3.841118813E0,-9.455359459E0,1.023456294E1
8.054247430E-1,-8.142421842E-1,-3.801251650E0,-9.491308212E0,1.025658013E1
8.101660970E-1,-9.561514854E-1,-3.771222591E0,-9.139868736E0,9.933455895E0
8.149074510E-1,-1.058415055E0,-3.625746012E0,-8.595575333E0,9.388833360E0
8.196488050E-1,-1.167721152E0,-3.499702215E0,-8.092122078E0,8.893476711E0
8.243901070E-1,-1.267911673E0,-3.391591549E0,-7.514303684E0,8.341178160E0
8.291314610E-1,-1.660796881E0,-3.276516676E0,-6.642670155E0,7.590709755E0
8.338728150E-1,-2.098621368E0,-2.967938185E0,-5.497026920E0,6.590157333E0
8.386141700E-1,-2.132707596E0,-2.313110113E0,-4.447178841E0,5.447597610E0
8.433555240E-1,-1.905247927E0,-1.509237885E0,-3.592203856E0,4.337245347E0
8.480968780E-1,-1.682673454E0,-7.517449856E-1,-2.909558773E0,3.444131637E0
8.528382320E-1,-1.422018766E0,4.636788368E-2,-2.415169239E0,2.803092900E0
8.575795340E-1,-1.210711956E0,7.789385319E-1,-1.698987961E0,2.226910139E0
8.623208880E-1,-1.209169149E0,1.313602209E0,-4.198913574E-1,1.834107289E0
8.670622430E-1,-1.349742174E0,1.729781151E0,1.404405117E0,2.605052878E0
8.718035970E-1,-1.574467421E0,2.101532698E0,3.642017365E0,4.489952987E0
8.765449510E-1,-2.042552471E0,2.549475193E0,6.228571415E0,7.033274218E0
8.812863050E-1,-2.943108082E0,3.026376486E0,9.081161499E0,1.001440632E1
8.860276590E-1,-4.141773224E0,3.568098068E0,1.189148045E1,1.308789198E1
8.907690130E-1,-5.297287941E0,4.172578812E0,1.441510391E1,1.591436126E1
8.955103150E-1,-6.361864567E0,4.993412971E0,1.645914841E1,1.833878568E1
9.002516700E-1,-6.963678360E0,6.179698944E0,1.782463455E1,2.010967658E1
9.049930240E-1,-7.216591358E0,7.553261280E0,1.825360489E1,2.103152487E1
9.097343780E-1,-7.454305649E0,8.895743370E0,1.803654480E1,2.144802721E1
9.144757320E-1,-7.450844288E0,1.033850670E1,1.756414032E1,2.170020338E1
9.192170860E-1,-7.048259258E0,1.184252548E1,1.761067009E1,2.236200057E1
9.239584400E-1,-6.745260715E0,1.315714264E1,1.903493881E1,2.410265214E1
9.286997430E-1,-6.970420837E0,1.394527626E1,2.168431664E1,2.670706058E1
9.334410970E-1,-6.961488247E0,1.444387627E1,2.543838120E1,3.006990386E1
9.381824510E-1,-6.737192154E0,1.451142311E1,2.971517944E1,3.374852661E1
9.429238050E-1,-6.559972763E0,1.400707817E1,3.360680389E1,3.699525307E1
9.476651590E-1,-6.179871082E0,1.317961597E1,3.667662430E1,3.945969911E1
9.524065130E-1,-5.269706726E0,1.227504063E1,3.988416290E1,4.206177459E1
9.571478680E-1,-4.388453007E0,1.182065582E1,4.281781387E1,4.463576603E1
9.618892220E-1,-2.627710581E0,1.176037025E1,4.464476776E1,4.624247463E1
9.666305240E-1,-1.287334681E0,1.148567009E1,4.576374435E1,4.720061594E1
9.713718780E-1,-4.693893194E-1,1.093131828E1,4.618589783E1,4.746420971E1
9.761132320E-1,-5.448157787E-1,1.023966885E1,4.584578323E1,4.697854279E1
9.808545860E-1,-1.221647382E0,9.782464027E0,4.463713074E1,4.571282605E1
9.855959400E-1,-1.891493320E0,9.716209412E0,4.215308762E1,4.329971441E1
9.903372950E-1,-2.645129681E0,9.869227409E0,3.845458984E1,3.978886579E1
9.950786490E-1,-3.843164921E0,9.946327209E0,3.430431366E1,3.592332497E1
9.998199510E-1,-5.525937557E0,9.982013702E0,3.055160522E1,3.261253080E1
1.004561305E0,-7.198318005E0,1.021395302E1,2.749374771E1,3.020011228E1
1.009302659E0,-8.856895447E0,1.038840485E1,2.497850800E1,2.846558297E1
1.014044013E0,-1.054915047E1,1.030416679E1,2.267779160E1,2.705074233E1
1.018785368E0,-1.205942249E1,1.012262440E1,2.030059433E1,2.569068558E1
1.023526722E0,-1.324627686E1,9.915967941E0,1.773558044E1,2.425574333E1
1.028268076E0,-1.424816895E1,9.544013023E0,1.483065987E1,2.267260406E1
1.033009430E0,-1.458671951E1,8.963095665E0,1.158418083E1,2.067130174E1
1.037750784E0,-1.431226730E1,8.067590714E0,8.361831665E0,1.843494627E1
1.042492086E0,-1.333867645E1,6.911044598E0,5.471510887E0,1.598812867E1
1.047233440E0,-1.146990204E1,5.648490429E0,2.951896667E0,1.312165351E1
1.051974795E0,-9.057008743E0,4.438313007E0,8.379831314E-1,1.012078285E1
1.056716149E0,-6.366945267E0,3.132785320E0,-1.041639328E0,7.171983574E0
1.061457503E0,-3.669856548E0,1.524891853E0,-2.641582489E0,4.771907406E0
1.066198857E0,-1.002660275E0,1.388788223E-2,-4.101953506E0,4.222741179E0
1.070940211E0,1.654471159E0,-1.132293701E0,-5.968037605E0,6.295779277E0
1.075681565E0,3.936708450E0,-2.057472229E0,-8.395180702E0,9.497890525E0
1.080422868E0,5.887646675E0,-2.741508484E0,-1.117656708E1,1.292655808E1
1.085164222E0,7.491716385E0,-3.342257738E0,-1.408347607E1,1.629849071E1
1.089905576E0,8.788348198E0,-4.033575058E0,-1.672930145E1,1.932289623E1
1.094646930E0,9.880814552E0,-4.726954937E0,-1.893719864E1,2.187674774E1
1.099388284E0,1.059016991E1,-5.113908768E0,-2.110255623E1,2.415826237E1
1.104129638E0,1.072155380E1,-5.507896900E0,-2.315132523E1,2.610119737E1
1.108870993E0,1.046041298E1,-6.054686069E0,-2.500508118E1,2.777289232E1
1.113612347E0,9.978567123E0,-6.645175457E0,-2.620623398E1,2.881834239E1
1.118353649E0,9.586523056E0,-7.188650131E0,-2.677508926E1,2.933399939E1
1.123095003E0,9.418565750E0,-7.633854866E0,-2.665935516E1,2.928662389E1
1.127836357E0,9.371752739E0,-7.997433662E0,-2.583894920E1,2.862586227E1
1.132577711E0,9.395453453E0,-8.339343071E0,-2.460950279E1,2.763054137E1
1.137319065E0,9.607565880E0,-8.509577751E0,-2.324757004E1,2.655499479E1
1.142060420E0,9.945057869E0,-8.565549850E0,-2.219508362E1,2.578554938E1
1.146801774E0,1.034373951E1,-8.637195587E0,-2.147728348E1,2.535483781E1
1.151543128E0,1.081005859E1,-8.724422455E0,-2.085903931E1,2.506137336E1
1.156284430E0,1.146478176E1,-8.805182457E0,-2.045210266E1,2.504517842E1
1.161025784E0,1.215099621E1,-8.868783951E0,-2.009434700E1,2.510149037E1
1.165767138E0,1.275857353E1,-8.882854462E0,-1.987815666E1,2.523543965E1
1.170508493E0,1.310915470E1,-8.963017464E0,-1.962021255E1,2.524159979E1
1.175249847E0,1.302875996E1,-9.119915009E0,-1.923144913E1,2.495536157E1
1.179991201E0,1.241648960E1,-9.205108643E0,-1.861185074E1,2.419306155E1
1.184732555E0,1.135140800E1,-9.238129616E0,-1.803713989E1,2.322791248E1
1.189473909E0,1.016239738E1,-9.176413536E0,-1.759638977E1,2.229604940E1
1.194215211E0,9.084913254E0,-9.017358780E0,-1.735713387E1,2.156660623E1
1.198956565E0,8.263960838E0,-8.841694832E0,-1.699507332E1,2.086387148E1
1.203697920E0,7.849740982E0,-8.617429733E0,-1.633460236E1,2.006733073E1
1.208439274E0,7.691769123E0,-8.222266197E0,-1.544350243E1,1.911205747E1
1.213180628E0,7.617221832E0,-7.999451637E0,-1.426418686E1,1.804107319E1
1.217921982E0,7.430968285E0,-7.955536842E0,-1.250370407E1,1.657867521E1
1.222663336E0,7.000707626E0,-7.931230545E0,-1.025275803E1,1.473205255E1
1.227404690E0,6.692938805E0,-7.820866108E0,-7.841845989E0,1.294047623E1
1.232145993E0,6.634310722E0,-7.600306511E0,-5.418751717E0,1.145170765E1
1.236887347E0,6.719656467E0,-7.395568848E0,-3.214331388E0,1.049667318E1
1.241628701E0,6.761005878E0,-7.308323860E0,-1.293946743E0,1.003977571E1
1.246370055E0,6.597225189E0,-7.292245865E0,3.081488609E-1,9.838454435E0
1.251111409E0,5.974651337E0,-7.309192657E0,1.682033062E0,9.589055799E0
1.255852763E0,4.710292816E0,-7.245678425E0,2.989540577E0,9.144619572E0
1.260594118E0,3.111020088E0,-7.008337021E0,4.186918736E0,8.736447921E0
1.265335420E0,1.892374039E0,-6.467400074E0,4.861988068E0,8.309468767E0
1.270076774E0,1.125384808E0,-5.775641918E0,4.853039742E0,7.627353752E0
1.274818128E0,7.998294830E-1,-5.123941422E0,4.145727158E0,6.639394292E0
1.279559482E0,9.075975418E-1,-4.712591171E0,2.717401505E0,5.515117386E0
1.284300836E0,1.320471287E0,-4.403869629E0,8.426141739E-1,4.674153482E0
1.289042190E0,1.864922762E0,-4.169950962E0,-1.148228645E0,4.710080356E0
1.293783545E0,2.408460379E0,-4.047732830E0,-3.006880283E0,5.588036462E0
1.298524847E0,2.995570660E0,-3.940935612E0,-4.547626495E0,6.722002961E0
1.303266201E0,3.532366276E0,-3.856826305E0,-5.725617886E0,7.754703142E0
1.308007555E0,3.968420744E0,-3.793701649E0,-6.555247784E0,8.550544363E0
1.312748909E0,4.341955662E0,-3.736287594E0,-6.983441830E0,9.032213668E0
1.317490263E0,4.633632660E0,-3.712836027E0,-7.054815292E0,9.220961002E0
1.322231618E0,4.840934277E0,-3.737427473E0,-7.028232574E0,9.316601414E0
1.326972920E0,4.997403622E0,-3.807494164E0,-7.030151367E0,9.428365872E0
1.331714274E0,5.072454453E0,-3.830117226E0,-6.909502029E0,9.388333741E0
1.336455628E0,4.919743538E0,-3.796893835E0,-6.445778847E0,8.953677692E0
